wavelength [μm],Cabs [μm^2],Csca [μm^2],g [1]
0.2,219.22791962251375,341.56125049386316,0.8639272058763157
0.20349268054952147,222.36127273463313,338.581621193701,0.867568287171652
0.20704635518614775,226.70844247586882,334.3105044897289,0.8753124821464496
0.21066208907418743,232.52297269180406,328.4891393650397,0.8898480062423055
0.2143409659793422,236.0556563119464,324.9905201922456,0.8987186837285484
0.21808408859355052,239.4897994228361,321.5845642828742,0.9082712659655571
0.22189257886550445,241.8455258450578,319.26178965924504,0.9152852298326207
0.22576757833693778,242.6763214379663,318.4818875234654,0.9180562274116737
0.2297102484847876,241.94640275363304,319.28996447339364,0.9164737615043278
0.23372177106933037,239.65725002940547,321.7038739562741,0.9102853240126586
0.23780334848839801,236.6061265531411,324.91511864210753,0.9015998759400788
0.24195620413778032,233.58561533487762,328.1103385345556,0.8925666426203882
0.2461815827779205,230.94938563376485,330.9212186349923,0.8841109470456758
0.25048075090701466,228.63945288057516,333.39458889153286,0.8759763170641783
0.25485499714062676,228.15516498525238,333.9859343005491,0.8732639767999562
0.25930563259793366,228.95830854739222,333.24908424846024,0.874070517578173
0.26383399129471435,230.69279484056085,331.5588845187683,0.8778599089893484
0.2684414305432025,232.7759642968942,329.52770953595683,0.8831535399533582
0.27312933135892214,235.0010608334877,327.3684318851781,0.8891853071741764
0.27789909887462755,236.65990414389523,325.79198788782844,0.8937254997674936
0.28275216276147214,237.80611102419022,324.73652936318916,0.8967830482709505
0.2876899776575326,238.5385021101817,324.0999338396859,0.8985989980205606
0.29271402360381604,238.8598384942905,323.8794585891565,0.8991894801709593
0.29782580648788193,239.17949840613494,323.6611661838672,0.8997526615447126
0.30302685849521066,239.51675086585067,323.42563908677585,0.9003467985918004
0.30831873856845454,240.2357666626272,322.80521917562425,0.9020036595862696
0.3137030328747095,240.8148496364933,322.33343668173853,0.9033810471240882
0.31918135528094627,241.37143356099023,321.88613617727526,0.9046909751418152
0.3247553478377444,241.94316163091958,321.42478212777075,0.9060175654315479
0.33042668127147407,242.51382072960905,320.9655390295916,0.9073081799599273
0.3361970554850729,243.08090549451435,320.510838720518,0.9085553624562221
0.34206820006756816,243.64533725241557,320.05976847343555,0.909769426491552
0.34804187481249704,244.20770057377246,319.6118071422624,0.9109651519996562
0.3541198702453798,244.76837687493446,319.16666511477115,0.9121603622191766
0.36030400816040503,245.33247550444474,318.7193099130373,0.9133854685070074
0.3665961421664873,245.89974315068667,318.2701047413796,0.9146510965268765
0.3729981582428595,246.46611879466718,317.8232232212017,0.915947318705231
0.3795119753043701,247.03172914711172,317.3785647508877,0.9172702598236442
0.38613954577665,247.5966802743879,316.9359837143091,0.9186121350817568
0.3928828561813256,248.16108084927777,316.4952893503591,0.9199565899912784
0.3997439277314502,248.6831218565249,316.0985666144308,0.9211515290721026
0.4067248169373347,248.91300092260383,315.997958090418,0.9214196929370944
0.413827616222958,249.087912866652,315.9542512899834,0.921494307692728
0.4210544545531415,249.2588189779837,315.91597261432145,0.9215285218897924
0.42840749807167683,249.4283441680605,315.8804944831216,0.9215289891439326
0.43588895075059714,249.59309365765574,315.8512762301007,0.9214815527863554
0.44350105505078646,249.75397910609013,315.8274022614345,0.9213804560249861
0.4512460925941269,249.91195498325948,315.80792510418433,0.9212190168967803
0.459126384847382,250.06887227713236,315.79090226195075,0.9209925505321787
0.4671442938180245,250.2287525508719,315.77226131086167,0.9207098607103356
0.475302222762215,250.38195393858047,315.7617379517831,0.9203561210240075
0.48360261690514417,250.53002319279062,315.7578872161648,0.9199368777274606
0.4920479641739553,250.6765180173744,315.75722359383803,0.9194625541087043
0.500640795943465,250.82450806556898,315.7566374835274,0.9189304175173102
0.5093836877949082,250.97688130869005,315.7533365826465,0.9183188611588239
0.5182792602879318,251.13064006980625,315.75039675704517,0.9176074272354255
0.5273301797460717,251.28274778200102,315.75071927751014,0.9168018157485128
0.5365391590559452,251.4383749319577,315.74917307029796,0.9159282576120739
0.5459089584804016,251.59340034296127,315.7499996939544,0.9150084884172434
0.5554423864858712,251.74621946986156,315.7548840041818,0.9140612896948633
0.5651423005841657,251.89685600106537,315.76399008017967,0.9130814313019049
0.575011608188976,252.04393582093775,315.7786481625589,0.9120546744225949
0.5850532674873292,252.1886615561358,315.7975686415077,0.9109792301601702
0.5952702883262637,252.3532544382952,315.79823561196207,0.9098841913900731
0.6056657331149892,252.58018367728636,315.7376005282958,0.9088464795844649
0.6162427177428007,252.73250981312896,315.75484651081143,0.9076569044163955
0.627004412513023,252.858783079589,315.80054132155897,0.9064613707600236
0.6379540430932644,252.98669118037157,315.846919376573,0.9052870060803009
0.6490948914822663,253.1163577494437,315.89396484163507,0.9041391585941955
0.6604302969936352,253.24493495632754,315.9443287896153,0.9030332744798372
0.6719636572567564,253.37372044750572,315.9967680774458,0.9019487829243585
0.6836984292351859,253.5041377940952,316.04984424459883,0.9008592373837421
0.6956381302628262,253.63606893950026,316.10360072653674,0.8997563926888851
0.707786339098198,253.7695766796985,316.1581124338486,0.8986456345496311
0.720146696997124,253.9046229231506,316.2134478183934,0.8975371635736702
0.7327229088041434,254.04128033550967,316.26969162238186,0.8964430897559867
0.7455187440629881,254.17969588037317,316.3268664938646,0.8953719873012572
0.7585380381464499,254.31985041943335,316.3849630461908,0.8943250207636737
0.7717846934059808,254.46187629816478,316.4439559379219,0.8933006531513246
0.7852626803413676,254.60578100373624,316.5037641348735,0.8922911618016635
0.7989760387908342,254.7495140313007,316.5662586430318,0.8912920859793995
0.8129288791419261,254.89101468495699,316.6335518177249,0.8902830887246554
0.8271253835635419,255.03296502441685,316.7028046720533,0.8892592816271002
0.8415698072594806,255.1765564646413,316.77285752301316,0.8882258599362279
0.8562664797438789,255.32190880811066,316.8436949265061,0.8871897681747686
0.8712198061389217,255.46894777037897,316.91537531449563,0.8861575995058948
0.8864342684952174,255.61783828773855,316.9879627745147,0.885136545817628
0.9019144271352296,255.76582803508205,317.06401172302543,0.88415944032608
0.9176649220201692,255.91481816242793,317.1417798701331,0.8832040551074231
0.9336904741407583,256.0658206225705,317.2204675664468,0.8822579501195802
0.9499958869322823,256.21875879597013,317.3000040061449,0.8813128077078503
0.9665860477143504,256.37368126329227,317.3803445902222,0.8803596040614619
0.9834659291558037,256.5306517921905,317.46138680964725,0.8793880165021234
1.0006405907652007,256.68881599310953,317.54382054941277,0.878379012601444
1.0181151804073367,256.84878151200996,317.6270873053303,0.8773299800718517
1.0358949358462421,257.0107645043828,317.71083955221684,0.8762420703961951
1.053985186315131,257.17457041751464,317.79523560899673,0.8751171554097319
1.072391354113764,257.34034663385285,317.88029831838026,0.8739632480186545
1.0911189562337036,257.5077931151174,317.96626937262107,0.8727871021973388
1.1101736060119611,257.6738340026114,318.0566026101397,0.8715674120851482
1.1295610148135111,257.84190484392434,318.1477641951807,0.8703466169778437
1.1492869937431949,258.0119248049174,318.2397711788408,0.8691304485601477
1.1693574553875183,258.1840755527017,318.33264099756997,0.8679231104174091
1.189778415586867,258.3581103047371,318.4265774806604,0.8667232785496901
1.21055599523867,258.5336570474406,318.5219015268853,0.8655274963540618
1.2316964221320528,258.7107420831896,318.6187312971162,0.864327666936644
1.2532060328145311,258.88977547125387,318.7164644902574,0.8631153279401151
1.2750912744913014,259.07099912519686,318.81488912876273,0.8618794397509969
1.2973587069577024,259.25447872243535,318.91394069583896,0.860606604246131
1.3200150045654193,259.44005371606795,319.01358695139095,0.8592820857720229
1.3430669582230288,259.6278563903422,319.11382491835406,0.8578934102708228
1.3665214774314804,259.81783596963567,319.21461513724273,0.8564293813592889
1.3903855923551212,260.00971686667833,319.3161858249289,0.8548813965138184
1.4146664559288884,260.2032913911674,319.41893415112094,0.853245004435695
1.439371346002304,260.3955731467826,319.5255334855564,0.8515260310118072
1.464507667520907,260.5863471041766,319.63627290643745,0.8497309645156095
1.4900829547457826,260.77935433870647,319.7477454560072,0.847860264363373
1.5161048735118525,260.97446814866584,319.85997196175475,0.8459219719241693
1.5425812235255991,261.17186889799575,319.97299310933215,0.8439265209651252
1.5695199407029223,261.371564877393,320.0867926971914,0.8418843163021671
1.5969290995478176,261.57353701049914,320.2013603036201,0.8398057920606484
1.6248169155725942,261.77803983140575,320.3166520669364,0.8377016713497315
1.6531917477603624,261.98492965566817,320.4326913042799,0.8355804396456786
1.6820621010705212,262.19310696776444,320.5506236537404,0.8334494048778335
1.7114366289880016,262.40289822394874,320.6702410400106,0.8313145886827891
1.7413241361170255,262.6150465580928,320.79066794516496,0.8291794974760698
1.771733580820165,262.82970122546504,320.91191104535307,0.8270459049692314
1.802674077903487,263.04691934403377,321.0338865487562,0.8249128455146718
1.8341549013485865,263.26662910128056,321.156563219598,0.8227764725999885
1.8661854870923338,263.48895878502697,321.27998896106124,0.8206307367417804
1.8987754358551652,263.7137758795973,321.40416798120816,0.8184666183393816
1.9319345160187664,263.94954924559124,321.5211374605692,0.8162671511016826
1.9656726665540052,264.1896897587533,321.63722297570064,0.8140260497508969
2.0000000000000004,264.4325030037218,321.7538655699371,0.8117306585491897
2.0349268054952128,264.6781359675071,321.8710569242432,0.8093670727641921
2.0704635518614767,264.9265858161847,321.98882822804353,0.8069211911866556
2.1066208907418744,265.1776925923442,322.10723955043716,0.8043794465046862
2.1434096597934222,265.4317103634225,322.2262478133293,0.8017301792185089
2.1808408859355053,265.6904419785948,322.34409315481025,0.7989614353646349
2.218925788655044,265.9520224463367,322.46253294044874,0.7960668711420347
2.257675783369378,266.2166131710985,322.5815830960214,0.7930407265289624
2.2971024848478763,266.48403600773065,322.7012874963235,0.7898788803300492
2.3372177106933023,266.75437575751545,322.8217064927289,0.786579690404644
2.378033484883979,267.02773807627864,322.9428068443018,0.7831433910581715
2.419562041377803,267.29875206768884,323.0701698885198,0.7795595713767929
2.4618158277792053,267.5725437493459,323.19861042015947,0.7758436917164027
2.5048075090701465,267.84929373960205,323.3278800877727,0.772000593138959
2.5485499714062674,268.1289402868531,323.4580314390199,0.7680353291544076
2.5930563259793367,268.4116979710895,323.5890281473847,0.7639542839553694
2.638339912947144,268.6974804476538,323.72080569907894,0.7597639917550474
2.6844143054320244,268.98632828480777,323.85344389015233,0.7554706048126223
2.731293313589221,269.27831790831783,323.986988646088,0.7510803757101897
2.7789909887462754,269.57320424507805,324.12157704812887,0.7465992969497482
2.8275216276147215,269.8709808252164,324.2574394388979,0.7420333824255042
2.876899776575326,270.17170158047344,324.3945074381042,0.737389132697425
2.9271402360381598,270.47545940412476,324.53261225442463,0.7326731594023494
2.97825806487882,270.78208426642766,324.67216194600087,0.7278909480923589
3.0302685849521063,271.0908670156438,324.8138322565291,0.723047017035072
3.083187385684544,271.4020405973081,324.95743768398427,0.7181472076607014
3.137030328747094,271.7163668064844,325.1023001783848,0.713197843405887
3.191813552809462,272.0341196261389,325.2479661972703,0.7082044390944557
3.2475534783774442,272.3556294458132,325.3942252925601,0.7031720612674189
3.304266812714741,272.6807620571503,325.54127795140556,0.6981046197879913
3.361970554850728,273.00480554629456,325.69415258657324,0.6930015049682566
3.420682000675681,273.32555494209873,325.85548151277794,0.6878648858615378
3.48041874812497,273.64958060184546,326.0180925231454,0.6827047724196549
3.5411987024537965,273.97684481111077,326.18203210344774,0.6775243314944742
3.6030400816040498,274.3074148625745,326.34742089367995,0.6723266300582509
3.665961421664872,274.6411275405072,326.51432961453634,0.6671145153240164
3.7299815824285942,274.9781339447514,326.6826848398252,0.6618908535062553
3.795119753043701,275.3188059047721,326.8522307245408,0.6566580975606323
3.8613954577664997,275.6632167537887,327.02281176338624,0.6514183108570991
3.9288285618132557,276.0101116472092,327.19844722583434,0.6461426466874587
3.997439277314501,276.35862084816966,327.38213363175583,0.6408111390040718
4.067248169373345,276.86629263113264,327.43159528778926,0.6351542570646941
4.138276162229578,277.3898428093502,327.47598152755296,0.6294278028828483
4.210544545531414,277.9105189855514,327.5321151737293,0.6236666295581598
4.284074980716769,278.42726344490507,327.6014262569015,0.6178700839041051
4.358889507505972,278.9384094292505,327.6861544313039,0.6120374019689251
4.435010550507864,279.4416063688488,327.78849263525507,0.6061674939191769
4.5124609259412685,279.93535755144967,327.9110318450439,0.6002587287971672
4.59126384847382,280.4153956070784,328.058000092558,0.5943068619704925
4.671442938180244,280.8769612541194,328.23428783074706,0.5883147425799218
4.753022227622148,281.3046226417563,328.42383667241006,0.5827217941098053
4.836026169051442,281.72726928476857,328.6250789601578,0.5771285194213172
4.920479641739553,282.1459396676107,328.83937615812613,0.5715361956869215
5.006407959434651,282.55910104700826,329.06696339699596,0.5659462861618311
5.093836877949081,282.9646640357174,329.3092253752736,0.5603599345725103
5.182792602879318,283.3645483561007,329.5677438696787,0.5547768439819912
5.273301797460716,283.75316677894233,329.8438184727052,0.5491940573105838
5.365391590559449,284.1467641048907,330.10919498622405,0.5438088189889047
5.459089584804013,284.5678559396742,330.32269432712104,0.5388419162546692
5.554423864858712,284.9794687261976,330.5502617178542,0.5338759683080849
5.651423005841657,285.39676224426364,330.7812082626534,0.5289329076251928
5.750116081889761,285.8168607652609,331.014282648376,0.5240122960979453
5.85053267487329,286.23800997005793,331.25050593858026,0.5191144838966414
5.952702883262636,286.66553333039775,331.4898296030877,0.5142411818690843
6.056657331149892,287.1052065897605,331.7177457817008,0.5094144395187782
6.162427177428005,287.5576904851301,331.9367308712901,0.5046320037277834
6.270044125130228,288.0164429019229,332.1578288746284,0.4998743904032936
6.379540430932644,288.4758212516291,332.38069450147725,0.4951409947677689
6.4909489148226625,288.9405800636955,332.6063898444413,0.49043340946885094
6.604302969936352,289.4104198238494,332.8333135335353,0.485752167635539
6.719636572567562,289.8885390412772,333.0525483188994,0.48111602088389854
6.836984292351858,290.38274230072307,333.261712895811,0.47653063340827906
6.956381302628261,290.8816199784166,333.4697524707868,0.4719738397586253
7.077863390981976,291.38429222624444,333.6784698428875,0.4674448829525653
7.2014669699712375,291.88377026122174,333.9015997111513,0.4629275155307593
7.327229088041434,292.33817524029735,334.18481293651655,0.4583673730689482
7.455187440629881,292.78874452816734,334.4811320698681,0.4538246701603041
7.585380381464499,293.2430353278527,334.7823738879281,0.4493092140438675
7.717846934059807,293.6983119616883,335.08589485428683,0.44482385912955946
7.852626803413676,294.16187435486233,335.38854558642913,0.44037462335296207
7.9897603879083405,294.67555464494444,335.63477134239577,0.436025458571404
8.129288791419256,295.2129066303692,335.85421170317494,0.43173654497771535
8.271253835635417,295.7338393965004,336.10528131709447,0.42744392375372214
8.415698072594806,296.24072555717294,336.38092763559007,0.42315326791565
8.562664797438787,296.75093072682307,336.6613354018068,0.4188671215393652
8.712198061389218,297.2701977115041,336.94321515358604,0.4145971465361261
8.864342684952176,297.79017350183824,337.22898052556343,0.41035435642213297
9.019144271352292,298.3039640720319,337.5318381080912,0.4061193034783141
9.17664922020169,298.8191285246206,337.84364104208885,0.4019065089290759
9.336904741407581,299.3779530226681,338.0963530663137,0.39781484956622326
9.49995886932282,299.9412856147975,338.352998768986,0.3937471659626567
9.665860477143504,300.505065349945,338.61776512769796,0.3896985547798231
9.834659291558038,301.05773603471084,338.9026271038341,0.3856565271293425
10.006405907652008,301.6092476126891,339.19810757082706,0.381645385991802
10.181151804073364,302.19383056883373,339.4585526337614,0.3776740657364384
10.35894935846242,302.7704299001217,339.73658266967186,0.37371103351894946
10.539851863151315,303.3518871209618,340.01866404373743,0.36977547084096746
10.723913541137632,303.9347181772986,340.3033816384086,0.3658688223400782
10.911189562337036,304.5192726563968,340.59353519640143,0.3619911511871269
11.101736060119611,305.1038146361062,340.89282283036243,0.3581391164706473
11.295610148135111,305.6829407496137,341.20377542532145,0.3543071445274134
11.492869937431948,306.26150560471694,341.5250759981267,0.3504981990340763
11.69357455387518,306.8385063482264,341.8551177496785,0.3467140373530282
11.89778415586867,307.4002331076889,342.2107036409218,0.3429425990937708
12.1055599523867,307.9814862435959,342.54810070039366,0.3392218211141724
12.316964221320523,308.58212529079475,342.8622700273955,0.33555354311155533
12.532060328145308,309.19963741111735,343.1586428812325,0.331931321473327
12.750912744913013,309.8553324409627,343.4101778450398,0.32837494905078174
12.973587069577023,310.50394884375754,343.6762354118145,0.3248342844298043
13.200150045654192,311.1251320700023,343.9908192405855,0.3212843015866538
13.430669582230285,311.72674629704557,344.34202542283094,0.317738529472096
13.665214774314803,312.31270638134606,344.7196466191898,0.3142064612331574
13.90385592355121,312.9037713657111,345.0984139512286,0.31070509817192976
14.14666455928888,313.5036753025724,345.4692331044127,0.3072391248128778
14.393713460023037,314.11498107747883,345.826553188315,0.30381062188749997
14.645076675209067,314.71755506081195,346.20412055505403,0.30039852864476835
14.900829547457828,315.30397428922726,346.60731403168455,0.2969953716888169
15.161048735118523,315.8798784564216,347.0295889710036,0.2936066649422531
15.425812235255988,316.4546744534529,347.460974649844,0.29024503077755726
15.695199407029223,317.0280480925258,347.89823137858394,0.286916285542287
15.969290995478175,317.6087768041297,348.33392265003323,0.2836225466067648
16.248169155725932,318.19829338015177,348.7651915672827,0.28036340973778195
16.53191747760362,318.77288332646043,349.2227016669945,0.2771230943172929
16.82062101070521,319.3472260288371,349.6897903803198,0.27390954047800836
17.11436628988001,319.91038775260745,350.1772242816886,0.2707165357004028
17.413241361170254,320.44849384923117,350.70201784643444,0.2675347849112857
17.71733580820165,320.9837737075814,351.2356781468615,0.2643795024955865
18.02674077903487,321.51279389361855,351.7762289418306,0.2612504828171429
18.341549013485864,322.0499993069083,352.30483109407356,0.2581562979692181
18.661854870923328,322.593954962236,352.8254820323955,0.2550944924802789
18.987754358551648,323.1231244469608,353.3623311882634,0.25205353019794763
19.319345160187662,323.6402326926686,353.91675539852696,0.24903385815146892
19.65672666554005,324.1589478915455,354.46806649801454,0.2460419285060535
20.000000000000004,324.6873078294993,354.9995880296273,0.24308177719060498
