wavelength [μm],Cabs [μm^2],Csca [μm^2],g [1]
0.2,763.7204287903087,1191.1016664591216,0.8644501741284699
0.20349268054952147,774.614516187733,1180.7200623645713,0.8683891990724061
0.20704635518614775,789.7608170106689,1165.8458541203813,0.8766149288485072
0.21066208907418743,810.0298545554219,1145.5783025783614,0.8917544177753589
0.2143409659793422,822.3375443823325,1133.3971367711647,0.9009994270294898
0.21808408859355052,834.2992861540067,1121.5429423692392,0.9108964423810365
0.22189257886550445,842.5024802718394,1113.4662143815758,0.9181700849945954
0.22576757833693778,845.391479919678,1110.7634766707315,0.9210982075973162
0.2297102484847876,842.8400672248611,1113.5884699853434,0.9195682062628884
0.23372177106933037,834.8489746614532,1121.9980763763638,0.9133068565191428
0.23780334848839801,824.1967434502674,1133.1782390292915,0.9044648717260361
0.24195620413778032,813.6489389916819,1144.2999791104744,0.8952565506599278
0.2461815827779205,804.4420873472559,1154.0828621790013,0.886654394195293
0.25048075090701466,796.3787360246147,1162.691207826318,0.8784242684896884
0.25485499714062676,794.6852203832905,1164.7509823998703,0.8758015860398055
0.25930563259793366,797.4836944119077,1162.1866392155755,0.8768343687439017
0.26383399129471435,803.5264750809897,1156.3024325094457,0.8809227525260336
0.2684414305432025,810.778128772396,1149.230570768674,0.8865125923431972
0.27312933135892214,818.5190511011845,1141.7128229145685,0.8928246334640432
0.27789909887462755,824.2847508539976,1136.2258377276762,0.8975926638661652
0.28275216276147214,828.2641955463539,1132.553667640239,0.9008428482078638
0.2876899776575326,830.8022819708965,1130.3400586569455,0.9028272678338521
0.29271402360381604,831.9088050617622,1129.5755293859597,0.9035634139001419
0.29782580648788193,833.0093559661225,1128.8182016010933,0.9042762300175952
0.30302685849521066,834.1709896166151,1128.000326964455,0.9050275177767059
0.30831873856845454,836.6615546492328,1125.8399578124238,0.9068980685910885
0.3137030328747095,838.6635870059513,1124.199942175791,0.9084525460316528
0.31918135528094627,840.5869130907427,1122.6457101403,0.9099461243094864
0.3247553478377444,842.562709103584,1121.0429150117534,0.9114825723269596
0.33042668127147407,844.5345124097062,1119.4481183244186,0.913011709853582
0.3361970554850729,846.4936746318522,1117.8698992587977,0.9145252834411931
0.34206820006756816,848.4434126250856,1116.3049653939083,0.9160256092563678
0.34804187481249704,850.3857306378434,1114.751280034441,0.9175140861887467
0.3541198702453798,852.3219339515963,1113.2075289979894,0.9189916197372867
0.36030400816040503,854.2698367972594,1111.6557826025014,0.9204732304546646
0.3665961421664873,856.2285341090742,1110.0969675678707,0.9219578799085953
0.3729981582428595,858.1838181490475,1108.545407035062,0.9234331434881399
0.3795119753043701,860.1361304280931,1107.0006713124078,0.9248990914014514
0.38613954577665,862.0858697530789,1105.4623727493922,0.9263557197993472
0.3928828561813256,864.0334117058151,1103.930145246154,0.9278029297019892
0.3997439277314502,865.8331875837955,1102.5510221635625,0.9291157875809984
0.4067248169373347,866.6163232295885,1102.2036613865234,0.9295508990582263
0.413827616222958,867.2080398026378,1102.0547108189458,0.9298176086800012
0.4210544545531415,867.7857231506164,1101.9249768838788,0.9300679255854296
0.42840749807167683,868.358447714854,1101.8053503158708,0.9303095658323575
0.43588895075059714,868.9143137077156,1101.70791526389,0.9305323461435479
0.44350105505078646,869.4565217312295,1101.6295107016433,0.9307388714531731
0.4512460925941269,869.9883398384582,1101.5669091394784,0.9309317905254421
0.459126384847382,870.5163876268703,1101.513477796146,0.931116591447044
0.4671442938180245,871.0547152656586,1101.4550583817065,0.9313051378877972
0.475302222762215,871.5696469172478,1101.425583997122,0.9314694860320226
0.48360261690514417,872.0666476027143,1101.4197781686785,0.9316136769917233
0.4920479641739553,872.5578935737174,1101.4254099260388,0.9317479358964614
0.500640795943465,873.054073642166,1101.4317170181603,0.9318811361511193
0.5093836877949082,873.5655156784085,1101.4287359333714,0.9320205382333963
0.5182792602879318,874.0818558364883,1101.4270888083402,0.9321570990513138
0.5273301797460717,874.5926665444945,1101.436992366424,0.9322831360985974
0.5365391590559452,875.1158728218229,1101.440350233366,0.9324137983712991
0.5459089584804016,875.6369760928967,1101.4517753355879,0.9325373427234991
0.5554423864858712,876.1503046161877,1101.4770111309906,0.9326492691357758
0.5651423005841657,876.6557517269196,1101.516461834985,0.9327488658077145
0.575011608188976,877.148758385807,1101.5748293520699,0.9328321092304778
0.5850532674873292,877.6335687367678,1101.6477050772874,0.9329029349961491
0.5952702883262637,878.1876366403314,1101.6566016153258,0.9330257763140982
0.6056657331149892,878.9592342752167,1101.4511428181302,0.9333237585404106
0.6162427177428007,879.4715992805761,1101.5153878796398,0.933399104066831
0.627004412513023,879.8932389235454,1101.6777612218063,0.9333945895610681
0.6379540430932644,880.3206255377199,1101.841029869941,0.9333890775983796
0.6490948914822663,880.7538441620597,1102.0051864923826,0.9333825784659847
0.6604302969936352,881.1829877684706,1102.179935500582,0.9333678185730543
0.6719636572567564,881.6126112912089,1102.3609092048928,0.9333480388413588
0.6836984292351859,882.048036639665,1102.5429961584762,0.9333267958564233
0.6956381302628262,882.4893409790575,1102.7261955816487,0.9333040051510145
0.707786339098198,882.9366149309274,1102.910503575723,0.9332797301022571
0.720146696997124,883.3899320907562,1103.095916063224,0.933253911095604
0.7327229088041434,883.8493820536614,1103.282432586792,0.9332266886521254
0.7455187440629881,884.3150541651405,1103.4700464388607,0.9331980747644109
0.7585380381464499,884.7870245133038,1103.6587550601791,0.9331679861113897
0.7717846934059808,885.2653938245385,1103.8485550617881,0.9331364934357365
0.7852626803413676,885.7502436865575,1104.0394381145968,0.9331034041647893
0.7989760387908342,886.2346326097352,1104.2383791632813,0.9330633296694103
0.8129288791419261,886.7112900474474,1104.4529590096436,0.9330099774392016
0.8271253835635419,887.1902058296541,1104.6731715425994,0.9329510711943693
0.8415698072594806,887.6756642357179,1104.894757495446,0.9328901503624112
0.8562664797438789,888.1679400773357,1105.1175255680087,0.9328273271808282
0.8712198061389217,888.6671097511551,1105.341476343698,0.9327625439228269
0.8864342684952174,889.1732891127697,1105.5666081004972,0.932695951435236
0.9019144271352296,889.6761841265043,1105.8028429777594,0.9326206437248094
0.9176649220201692,890.1828660446533,1106.0434831842558,0.9325412502129876
0.9336904741407583,890.6965434267167,1106.2855582978623,0.932459795537381
0.9499958869322823,891.2172802748655,1106.5290688887585,0.9323760254216213
0.9665860477143504,891.7451867986927,1106.7740226868334,0.9322899752325459
0.9834659291558037,892.280398729351,1107.0203717328234,0.9322014894290834
1.0006405907652007,892.8206183785205,1107.2706429419086,0.9321081632944462
1.0181151804073367,893.3677640668257,1107.5229805707795,0.9320115952499226
1.0358949358462421,893.922826839015,1107.7763806893754,0.9319124530110715
1.053985186315131,894.4854458106593,1108.0313215513297,0.9318103864663191
1.072391354113764,895.0557466363534,1108.2878002771486,0.9317054565450571
1.0911189562337036,895.6330748895693,1108.5465766683549,0.93159684782953
1.1101736060119611,896.2068666170626,1108.8190366876604,0.9314749181407368
1.1295610148135111,896.7884427731069,1109.0932694647786,0.9313498705709967
1.1492869937431949,897.3778684017539,1109.3692912791478,0.9312216145557543
1.1693574553875183,897.9752928455766,1109.6471113661773,0.9310902926313747
1.189778415586867,898.5799265342037,1109.92760433074,0.9309549675889721
1.21055599523867,899.1906250300724,1110.2120327392229,0.9308147151717538
1.2316964221320528,899.8070743788003,1110.500901351515,0.9306690442149694
1.2532060328145311,900.4312034722395,1110.7922874874976,0.9305191449417574
1.2750912744913014,901.0638371350669,1111.0855182300727,0.9303655890677549
1.2973587069577024,901.7050855333159,1111.380585207565,0.9302081240772787
1.3200150045654193,902.3550039017571,1111.6775091776199,0.930046467192051
1.3430669582230288,903.0137725334571,1111.9763022066386,0.9298806331828511
1.3665214774314804,903.6814515715012,1112.2769584365785,0.9297102494619107
1.3903855923551212,904.3574341701594,1112.580238556653,0.929534655365932
1.4146664559288884,905.0405496759079,1112.8875233636993,0.9293527468026851
1.439371346002304,905.7200363835559,1113.2094296711946,0.929156881673255
1.464507667520907,906.3948367534169,1113.547135214803,0.928946576315898
1.4900829547457826,907.0786246354689,1113.8872600448774,0.9287310636225158
1.5161048735118525,907.7714272841947,1114.2298403879154,0.928510177500797
1.5425812235255991,908.4734499024687,1114.574904803159,0.9282840988144881
1.5695199407029223,909.1847391693163,1114.922453476991,0.9280526085497116
1.5969290995478176,909.9055184970596,1115.2723962503023,0.927815821528187
1.6248169155725942,910.636168695032,1115.6245594696252,0.9275739787861339
1.6531917477603624,911.3765226690659,1115.979127490628,0.9273266880562908
1.6820621010705212,912.1224668826937,1116.340442475111,0.9270710201601448
1.7114366289880016,912.8748352055472,1116.7078106222937,0.9268074073716421
1.7413241361170255,913.6369210846804,1117.0779775394865,0.9265379637162037
1.771733580820165,914.408981704559,1117.4509623553922,0.92626282600777
1.802674077903487,915.1912203162619,1117.8266090682537,0.92598184602348
1.8341549013485865,915.9838149131231,1118.2048599628997,0.9256949641742291
1.8661854870923338,916.7868423333803,1118.5859091478912,0.9254020469174172
1.8987754358551652,917.6001567042565,1118.9699012703566,0.9251026043155729
1.9319345160187664,918.4567154542979,1119.3246454084808,0.9248178915109486
1.9656726665540052,919.3308499431625,1119.6756037819775,0.9245307038816105
2.0000000000000004,920.2165683567916,1120.028672908495,0.924236749916912
2.0349268054952128,921.114292545521,1120.3837512505538,0.9239360927770507
2.0704635518614767,922.02394400706,1120.740992262776,0.9236282479590205
2.1066208907418744,922.94542099204,1121.1006014633458,0.9233127981511193
2.1434096597934222,923.8793347143107,1121.4623099557068,0.922989859514702
2.1808408859355053,924.833069182461,1121.8188760347223,0.9226635799947724
2.218925788655044,925.7995116564975,1122.177490492149,0.9223292780301854
2.257675783369378,926.7788957738874,1122.5381686710991,0.921986783018087
2.2971024848478763,927.7709933658907,1122.9011030257057,0.9216355736330613
2.3372177106933023,928.7760525181652,1123.266427137111,0.9212755833752432
2.378033484883979,929.7942909756082,1123.6340181973362,0.9209066136823266
2.419562041377803,930.8064579258928,1124.023858927156,0.9205137156884377
2.4618158277792053,931.8310441921437,1124.4172768704964,0.9201107132207378
2.5048075090701465,932.8687941871785,1124.8134459201515,0.9196978809778945
2.5485499714062674,933.9197743802808,1125.212542158821,0.9192750418517825
2.5930563259793367,934.9843792826478,1125.6144711852417,0.9188422718697848
2.638339912947144,936.0625498041286,1126.0191553923055,0.9183993721683729
2.6844143054320244,937.1545213507998,1126.4267981268904,0.9179462153770529
2.731293313589221,938.2603760060806,1126.837503257345,0.9174824803852997
2.7789909887462754,939.3796517151188,1127.2517597140966,0.9170075329186432
2.8275216276147215,940.5122149434283,1127.6702618694521,0.9165208703458477
2.876899776575326,941.6582318656656,1128.0928037251952,0.9160223421571985
2.9271402360381598,942.8183630277463,1128.5188657184103,0.9155122680786257
2.97825806487882,943.991710683855,1128.9498525197907,0.9149896076683249
3.0302685849521063,945.1758540573651,1129.3881662978142,0.9144522423052507
3.083187385684544,946.3718393957129,1129.8331442179392,0.9139006616700843
3.137030328747094,947.5822154889709,1130.2824002148725,0.9133364829459064
3.191813552809462,948.808280200037,1130.7344510772052,0.9127605377995653
3.2475534783774442,950.0512362702859,1131.1885959580343,0.9121734120373493
3.304266812714741,951.3104745123308,1131.6455308180218,0.9115743067476219
3.361970554850728,952.5684948403157,1132.1234489912774,0.9109502534951927
3.420682000675681,953.816687977981,1132.6318450747358,0.9102946877735782
3.48041874812497,955.0799825001243,1133.1448211246495,0.9096254368663096
3.5411987024537965,956.3585391030349,1133.6625482121137,0.9089422505519189
3.6030400816040498,957.6524277974011,1134.1854216794866,0.9082447358453761
3.665961421664872,958.9611801551132,1134.713757144763,0.907532348200842
3.7299815824285942,960.2855382606767,1135.247316711715,0.9068052106116472
3.795119753043701,961.6268453904913,1135.7850249253397,0.9060637432823031
3.8613954577664997,962.9857537070648,1136.3262087148328,0.9053079717033209
3.9288285618132557,964.3656401723724,1136.8732729507242,0.9045259813780321
3.997439277314501,965.7698394079237,1137.4270988268051,0.9037083853174629
4.067248169373345,967.9190352671314,1137.312416155309,0.9031788835612063
4.138276162229578,970.171849549989,1137.1333530600996,0.9026352755525215
4.210544545531414,972.4455258977489,1136.9674986407124,0.9020369330654984
4.284074980716769,974.7394280329222,1136.8172245167289,0.9013784855971899
4.358889507505972,977.0497409334544,1136.6876746847024,0.900652173546699
4.435010550507864,979.3713333831795,1136.5839755164905,0.8998496451081287
4.5124609259412685,981.702142058306,1136.511876311944,0.8989624456279204
4.59126384847382,984.0296365992392,1136.4825095457293,0.8979755148911442
4.671442938180244,986.3378252805214,1136.5138435768413,0.8968752294990469
4.753022227622148,988.3514672536846,1136.798712073806,0.8957920483895895
4.836026169051442,990.3706328884914,1137.1073662540284,0.8946525205228016
4.920479641739553,992.400581376904,1137.4439574743346,0.8934554273180338
5.006407959434651,994.4336888990042,1137.808972814188,0.8921962524368741
5.093836877949081,996.4649759806339,1138.2089992873885,0.8908723180314175
5.182792602879318,998.5014993410362,1138.6471252495141,0.8894804482948425
5.273301797460716,1000.5225295819298,1139.1275106981018,0.8880104152105628
5.365391590559449,1002.4803584766908,1139.6748086958553,0.886596085352235
5.459089584804013,1004.3170061935089,1140.288306515848,0.885406821944258
5.554423864858712,1006.1277170837748,1140.9477272225527,0.8841591674787723
5.651423005841657,1007.9676128624712,1141.6214088858517,0.8828906732844551
5.750116081889761,1009.8210017076817,1142.3034099091324,0.8815963621455842
5.85053267487329,1011.685099523766,1143.0007684316151,0.8802770664598005
5.952702883262636,1013.5804024381016,1143.7110917280777,0.8789357156392249
6.056657331149892,1015.5173034494276,1144.393829746033,0.8776069216950826
6.162427177428005,1017.5044344508854,1145.0599705982397,0.876290605049442
6.270044125130228,1019.5210899335345,1145.7360520046138,0.8749519560725142
6.379540430932644,1021.5432589569184,1146.422918119202,0.8735871080862553
6.4909489148226625,1023.5947417403966,1147.125938382778,0.8722007500968265
6.604302969936352,1025.6694424079838,1147.836643388368,0.8707911948709594
6.719636572567562,1027.7702220999986,1148.539153468721,0.8693866057672875
6.836984292351858,1029.928574325891,1149.2281318804403,0.867999599120294
6.956381302628261,1032.1058606570123,1149.9198589930006,0.8665937157697913
7.077863390981976,1034.3028306047288,1150.624035502239,0.8651679964213979
7.2014669699712375,1036.4991964961298,1151.3773045705768,0.8636839169868702
7.327229088041434,1038.5451610194823,1152.3088726656097,0.8620055761583066
7.455187440629881,1040.587203211708,1153.2881557526687,0.8602727529263925
7.585380381464499,1042.6497552672836,1154.2890136147562,0.8585065646790528
7.717846934059807,1044.7169959564217,1155.3055426998344,0.8567113778786062
7.852626803413676,1046.8207799020954,1156.332387578723,0.8549021488514732
7.9897603879083405,1049.093321191061,1157.2143262282962,0.8532351643890739
8.129288791419256,1051.4468128694632,1158.0339486639502,0.8516223353033692
8.271253835635417,1053.75644251525,1158.9542989348683,0.8499006919293821
8.415698072594806,1056.026264263528,1159.9502283982551,0.8480844450062638
8.562664797438787,1058.3420035986576,1160.9521000865445,0.8462236679744434
8.712198061389218,1060.7202075378,1161.9583324144232,0.844333145525774
8.864342684952176,1063.105201906584,1162.9871999178993,0.842407052584609
9.019144271352292,1065.4893518826502,1164.0722881143192,0.8404089316761523
9.17664922020169,1067.8925273364612,1165.1953404828164,0.8383643564422005
9.336904741407581,1070.396554917686,1166.1982982226632,0.836473603742655
9.49995886932282,1072.9305302441533,1167.226762827828,0.8345491000540142
9.665860477143504,1075.4798600239621,1168.2897679511423,0.8325761262193383
9.834659291558038,1078.0039110867017,1169.4203073470178,0.8305194886321668
10.006405907652008,1080.5218779584904,1170.605654322296,0.8284138344609165
10.181151804073364,1083.190466212795,1171.6984505024006,0.8263724650994668
10.35894935846242,1085.8491099697226,1172.8562065558608,0.8242558922395118
10.539851863151315,1088.5369413359508,1174.0480264281468,0.8221060289856665
10.723913541137632,1091.232473369496,1175.2688801295708,0.8199235130252187
10.911189562337036,1093.9377372310862,1176.5306634167353,0.8177040013011901
11.101736060119611,1096.6500777526446,1177.8431327649948,0.8154367468925513
11.295610148135111,1099.3490183446486,1179.2123326116136,0.8131118120341857
11.492869937431948,1102.055904362257,1180.639663288046,0.8107360690387136
11.69357455387518,1104.7635568484268,1182.120656102957,0.8083113250970788
11.89778415586867,1107.4204024251221,1183.7036926786468,0.8057934561308079
12.1055599523867,1110.1416052776176,1185.2696199608854,0.803299152644656
12.316964221320523,1112.921283267659,1186.7997010991598,0.8008367386827853
12.532060328145308,1115.7538343402268,1188.3087409863804,0.7983924869969156
12.750912744913013,1118.7135131631615,1189.7177663630825,0.7960335082336337
12.973587069577023,1121.6557603321407,1191.1958953192561,0.7936075537263634
13.200150045654192,1124.5224766908102,1192.848250436591,0.7910357538785188
13.430669582230285,1127.3341409895165,1194.6427023959704,0.7883487120318654
13.665214774314803,1130.0914006840048,1196.5505950178972,0.7855702157446214
13.90385592355121,1132.8682137343433,1198.50271492148,0.7827627547407491
14.14666455928888,1135.676438703658,1200.4727952230025,0.7799444836161216
14.393713460023037,1138.520155587303,1202.4450656536321,0.7771261039189415
14.645076675209067,1141.3394513976966,1204.5264490775642,0.7742319207117372
14.900829547457828,1144.112630971588,1206.7479305398977,0.7712545502043198
15.161048735118523,1146.8533387774094,1209.095982582054,0.7682136861283089
15.425812235255988,1149.5883850752823,1211.527850056544,0.7651303067177623
15.695199407029223,1152.303287520749,1214.0165110810685,0.7620066150040321
15.969290995478175,1155.03335408414,1216.5427338500879,0.7588630271116117
16.248169155725932,1157.7912563362202,1219.1013222505026,0.7557069790618495
16.53191747760362,1160.4845058906208,1221.7915134331615,0.7524725415232045
16.82062101070521,1163.16990265434,1224.5658413954673,0.7491969938434563
17.11436628988001,1165.8094271536977,1227.4676641356211,0.7458574863147245
17.413241361170254,1168.3454187750299,1230.570127364961,0.7424228749376613
17.71733580820165,1170.8611522020076,1233.7726287219705,0.738945461529436
18.02674077903487,1173.3411232731846,1237.073481407776,0.7354248847147318
18.341549013485864,1175.833026866215,1240.3988348242417,0.7318908364027412
18.661854870923328,1178.3397594780708,1243.7647720026107,0.7283350868007628
18.987754358551648,1180.7759321680246,1247.2690028036436,0.7247160649867133
19.319345160187662,1183.1486172920454,1250.9165362787107,0.7210356255234271
19.65672666554005,1185.516481086802,1254.654858452546,0.7173407177772435
20.000000000000004,1187.9039774922612,1258.4453561224454,0.7136700033558682
20.349268054952127,1190.254249580704,1262.3561135430107,0.7099579277318379
