wavelength [μm],Cabs [μm^2],Csca [μm^2],g [1]
0.2,212.21052234909558,348.6411766129675,0.8482560763018039
0.20349268054952147,218.0121971473883,342.99542744787186,0.8570943853660424
0.20704635518614775,224.41524751492267,336.64881552427556,0.8691059544767298
0.21066208907418743,231.92414951019305,329.1016721816859,0.8879518748654627
0.2143409659793422,236.3303744116293,324.71530785388,0.8991015629607557
0.21808408859355052,240.73934964642768,320.3219986777677,0.9114432051185594
0.22189257886550445,243.9368458874368,317.1421898698562,0.9209422179617931
0.22576757833693778,245.2297735094163,315.88230409975677,0.9251322793678685
0.2297102484847876,244.53749368615786,316.63701901600166,0.923839200855197
0.23372177106933037,241.83243755668275,319.46726766985364,0.9166463247147885
0.23780334848839801,238.16918077288915,323.30448491301104,0.9062953262386524
0.24195620413778032,234.56880041333062,327.09804093873623,0.8955502219661382
0.2461815827779205,231.4592813017171,330.39926104239163,0.8855600465404995
0.25048075090701466,228.52156288398066,333.5151878524763,0.8753087339294374
0.25485499714062676,227.8444630464807,334.29672443156136,0.8718914744285136
0.25930563259793366,228.55045314538006,333.64400052310907,0.8722468776659006
0.26383399129471435,230.30768768503674,331.91411513740695,0.87604475421901
0.2684414305432025,232.57163416431297,329.69224947756834,0.881903818196608
0.27312933135892214,235.22391226235635,327.1036069815454,0.8892452749994219
0.27789909887462755,237.2930730382139,325.1197233047107,0.8950135871814388
0.28275216276147214,238.7607559397834,323.74548383723914,0.8989718060160119
0.2876899776575326,239.69618776272648,322.9072784345316,0.9012192321345465
0.29271402360381604,240.07627207781462,322.6282539033845,0.9016578478962348
0.29782580648788193,240.41361774642087,322.39228223614964,0.9011815967639137
0.30302685849521066,240.597136897018,322.3108183651391,0.8973645576498787
0.30831873856845454,239.48816823262518,323.542371240389,0.8179157342860854
0.3137030328747095,237.79763403514772,325.3272630012744,0.793562073405727
0.31918135528094627,232.9318559563144,330.1437187634805,0.7708904664152014
0.3247553478377444,221.1506596544192,342.1726802599226,0.7573118399985512
0.33042668127147407,196.93275281141013,366.5307631202705,0.7402363007626522
0.3361970554850729,159.31954817656634,404.1579959875341,0.7301697896726207
0.34206820006756816,116.58785395125187,447.2441387269487,0.7197377861581643
0.34804187481249704,78.6470649436917,485.4012761035027,0.7080736495403708
0.3541198702453798,49.8059459275745,513.9030737828274,0.7099549548827236
0.36030400816040503,30.320402675456307,533.5214362647916,0.7148433815634984
0.3665961421664873,18.06904439091477,545.6517979704794,0.7204118504417735
0.3729981582428595,10.520759532340207,553.8021778230191,0.7265484804124395
0.3795119753043701,6.099807504397404,558.4445286295069,0.7307271248683047
0.38613954577665,3.5092613533587382,561.3029981857654,0.7382548263344565
0.3928828561813256,2.0080053659814894,562.5055362484686,0.7323845083127168
0.3997439277314502,1.153084918679383,562.8817876786062,0.7399763025982017
0.4067248169373347,1.0091847774153848,563.3712472995641,0.734776289311309
0.413827616222958,0.9395583772939062,563.2941199695492,0.7478068386195061
0.4210544545531415,0.8116250058092191,563.9233237027167,0.7380242690710257
0.42840749807167683,0.7490635009850166,565.4808300672488,0.7384971528135095
0.43588895075059714,0.7189424590254703,563.9374627421582,0.7394012787105403
0.44350105505078646,0.6457591912709404,565.4789598225648,0.7256294606255494
0.4512460925941269,0.6152686777040799,565.4907855491801,0.7395069274023036
0.459126384847382,0.5992719967348421,565.9165039103157,0.7280105419392331
0.4671442938180245,0.5762918577785285,565.195042045893,0.7257311989580452
0.475302222762215,0.5538185693887954,565.624129771624,0.7282731087796976
0.48360261690514417,0.5450771883444077,566.5191410723922,0.7115681185868624
0.4920479641739553,0.5382414990739335,565.8342048369539,0.7251981277824406
0.500640795943465,0.5299319725190799,565.7109571823314,0.7145730145945693
0.5093836877949082,0.5341659057939978,564.9179783639952,0.7082994694650203
0.5182792602879318,0.5384218102658451,567.3293407564561,0.7101770561260927
0.5273301797460717,0.5149430040090692,566.8454390233096,0.6977715287362803
0.5365391590559452,0.49459254788951057,566.271121981833,0.7089535065358636
0.5459089584804016,0.47342121960946315,567.6161171594309,0.7018802484652019
0.5554423864858712,0.48336413299387004,567.1666353033032,0.6978883671761803
0.5651423005841657,0.512615788402627,566.5652967236974,0.6986958713269071
0.575011608188976,0.47558957378385003,566.4130434917474,0.6906344233692318
0.5850532674873292,0.46777043541965213,568.6295574540492,0.6970604479367947
0.5952702883262637,0.44066979470585466,567.7990497153318,0.6938854789959443
0.6056657331149892,0.4061718542700419,568.7400209916316,0.6915143531982904
0.6162427177428007,0.4306704545339244,569.0438958557402,0.693222464943229
0.627004412513023,0.4399171035842073,568.4685685957631,0.6878869574148264
0.6379540430932644,0.4566508381633412,568.2994158098816,0.6925579727868739
0.6490948914822663,0.4693972746908912,568.6675770506945,0.6937211714570907
0.6604302969936352,0.48095639367693366,568.4923723909236,0.6858589857251436
0.6719636572567564,0.5200945349887434,569.185433019039,0.6947432086566641
0.6836984292351859,0.5300771476474893,568.2059087767328,0.6891192670885379
0.6956381302628262,0.546202132812482,571.0063006961908,0.6853393331100012
0.707786339098198,0.5818671140000333,570.4093865279111,0.6898389180058176
0.720146696997124,0.5811983144047872,569.6346443418435,0.6846415627504788
0.7327229088041434,0.5963393914611288,569.7169414198607,0.6917313665507839
0.7455187440629881,0.6213597525252226,568.5833437649557,0.6905823842451154
0.7585380381464499,0.6936229842707462,571.6681165384346,0.6856118350401891
0.7717846934059808,0.6398236749180342,571.7870102313153,0.6937054086733242
0.7852626803413676,0.6842019350790451,570.269603095957,0.6877820734648091
0.7989760387908342,0.6967696946404658,570.8217241286204,0.6869357899396583
0.8129288791419261,0.746191267552831,569.8403681249307,0.6922038821109906
0.8271253835635419,0.7519035659784095,572.2759145316377,0.6843843910072516
0.8415698072594806,0.8022750909848355,572.1527372384326,0.6940728351413213
0.8562664797438789,0.8520151838973788,570.9618183491244,0.6916121663421265
0.8712198061389217,0.8761205537615524,572.8812932535049,0.6871829068310893
0.8864342684952174,0.9006432898930825,572.5319219952722,0.6942807799008126
0.9019144271352296,0.9618724570074164,572.8800007260897,0.6897304317820746
0.9176649220201692,0.9840795336638166,572.7335473879975,0.6900593396092323
0.9336904741407583,1.082543641978873,571.2144421121881,0.6958776236925807
0.9499958869322823,1.0940360580916604,573.6219833181774,0.6867521490344265
0.9665860477143504,1.1855102812849054,573.3266171839226,0.6962100607750633
0.9834659291558037,1.2158778396131993,571.4450843961039,0.693731216138186
1.0006405907652007,1.2836492831822852,573.5081970605402,0.6910043412530532
1.0181151804073367,1.3514209984172112,573.9552870620913,0.6936717031687364
1.0358949358462421,1.4615354721961467,574.9356405199014,0.690572683388871
1.053985186315131,1.4648774725501426,573.7658329356633,0.6925985867892033
1.072391354113764,1.5758985384757125,572.0746690906714,0.6960554621225218
1.0911189562337036,1.7305394993788923,576.3422104721136,0.6886129787169627
1.1101736060119611,1.7894198604518579,575.8920116142627,0.6965095470395213
1.1295610148135111,1.8449044591283155,574.446735971761,0.6944375441127262
1.1492869937431949,1.9809846733960512,574.2492484372616,0.6923448462514722
1.1693574553875183,2.0951776454837727,573.7248548758768,0.6944827725285538
1.189778415586867,2.243044124174844,576.9883524893729,0.6914817076941975
1.21055599523867,2.2724841285322555,576.4809477780705,0.6948908403949215
1.2316964221320528,2.506967201147063,573.1055475249537,0.6966709775950513
1.2532060328145311,2.588584271167292,576.6434744542544,0.6913722354404506
1.2750912744913014,2.643040850833927,575.4782801779662,0.6978137123424957
1.2973587069577024,2.890442970619006,575.1267005783149,0.6946013326210768
1.3200150045654193,2.9708214667052744,576.7489352273296,0.6918845214593669
1.3430669582230288,3.1661480871782715,574.9947641454416,0.6938305027394731
1.3665214774314804,3.308100972576085,577.4751972218347,0.6902565579343621
1.3903855923551212,3.7179426689486945,577.0870837807777,0.692618451044867
1.4146664559288884,3.7414980744350714,575.2132043842846,0.6934704090744039
1.439371346002304,4.0274426469194395,578.9820120342533,0.6881723126411183
1.464507667520907,4.215455265468336,575.9409583928098,0.6926762075611099
1.4900829547457826,4.459267340766587,576.9287411038624,0.6885353902467563
1.5161048735118525,4.769494663745377,579.0050180841098,0.6853049367253667
1.5425812235255991,4.920575582585457,575.3344353959524,0.6872377899552824
1.5695199407029223,5.2386916924992875,578.9435005290713,0.6832714530701057
1.5969290995478176,5.470710357096095,577.7574790193896,0.685922694271645
1.6248169155725942,5.786640550817879,575.0937308889463,0.685799561894713
1.6531917477603624,6.2374825065396635,579.3109662049181,0.6813634602302603
1.6820621010705212,6.568915180458248,575.2941560515085,0.6855174134486353
1.7114366289880016,7.157115546383011,577.870567633013,0.6814525095995643
1.7413241361170255,7.4097175328024605,578.6140320588048,0.6792291236984229
1.771733580820165,8.036498974081837,575.6436841553198,0.6813720959237134
1.802674077903487,8.278459190742979,579.063418672252,0.6770050456269131
1.8341549013485865,8.897558823089184,576.9779287323084,0.6805551214768619
1.8661854870923338,9.413522760004753,575.0413399771992,0.679414026949682
1.8987754358551652,9.72119001870999,578.5666034160989,0.6755984181575595
1.9319345160187664,10.435061474667123,573.8027243614565,0.6793339495787685
1.9656726665540052,10.966851883320942,575.153831648002,0.6753530432675677
2.0000000000000004,11.881586532062784,577.9412389332696,0.6734514559433544
2.0349268054952128,12.624406142984867,572.769648214756,0.6749021950840968
2.0704635518614767,13.335415506578443,577.9155700986998,0.6695401513782103
2.1066208907418744,13.812785596678964,573.5079704150496,0.672496991598844
2.1434096597934222,15.004536289878729,572.7360134227366,0.6702592575469496
2.1808408859355053,15.871712271522256,577.470933827974,0.6653086327490249
2.218925788655044,16.532783391895805,570.033078449597,0.6675528248437278
2.257675783369378,17.35074786637597,574.3168496064665,0.6625732717101024
2.2971024848478763,18.487326926812216,574.1990948141122,0.6594770383740322
2.3372177106933023,19.322021930611413,569.2220567319602,0.6600973577027541
2.378033484883979,20.43069355928594,574.3866246577136,0.6531924626578665
2.419562041377803,21.295014166971782,568.5559509141011,0.6551192416524538
2.4618158277792053,22.020195298763724,569.8779430889206,0.6514166429879714
2.5048075090701465,22.975492668886773,571.555011033955,0.6456825081295806
2.5485499714062674,23.631726774831577,567.8230705166034,0.6460920014156657
2.5930563259793367,25.09063227320007,569.7975409408648,0.6405018700584493
2.638339912947144,26.678753204675218,569.5215067218879,0.636810035448457
2.6844143054320244,27.994335671295403,564.6219247345924,0.6365717759675774
2.731293313589221,30.00517205318897,566.4659972964405,0.628638709614908
2.7789909887462754,31.845604571835565,562.4979563557662,0.6297877563407508
2.8275216276147215,33.58127526176429,561.1036341770075,0.6252527595464888
2.876899776575326,35.39706549494667,561.0085592288589,0.6194486105807355
2.9271402360381598,37.12805640187355,560.3533280102133,0.618298848582294
2.97825806487882,38.99056139329912,558.1716669018266,0.6125974739884468
3.0302685849521063,40.75079685208732,557.3202136466648,0.6089938165325316
3.083187385684544,41.681112304117164,556.3728249195069,0.6074558718740544
3.137030328747094,43.56382924350487,555.709882607148,0.5994829909535537
3.191813552809462,44.78688419729008,552.942169614387,0.5995199806504135
3.2475534783774442,46.667672933323615,553.7054238530345,0.5946756005560374
3.304266812714741,48.668487717589755,550.5740620489512,0.5888701045600987
3.361970554850728,51.06576083256016,549.6048272961633,0.5869068990518648
3.420682000675681,53.43354658048929,549.1995736336596,0.5811769792373159
3.48041874812497,56.04885804983394,546.0064768266485,0.577649170798848
3.5411987024537965,58.130840234083394,542.9689614271238,0.5754334267958439
3.6030400816040498,61.374848656721724,542.7559293396469,0.568058271846259
3.665961421664872,63.70457466501796,539.1537842096777,0.5673423376289496
3.7299815824285942,66.33425577760329,537.6598221253587,0.562507943895287
3.795119753043701,69.22274303469726,533.8273798318708,0.5569238277825892
3.8613954577664997,72.16557708406924,533.2443451867831,0.5546123990542317
3.9288285618132557,74.73708420867058,532.7150208790855,0.5489469158481641
3.997439277314501,77.62212693653248,528.7330385271572,0.5455175427147638
4.067248169373345,79.55561510917505,526.2107923342918,0.5427543659316227
4.138276162229578,82.66522491542776,525.8268061415605,0.5359716669498412
4.210544545531414,84.31062274594274,522.9303242708845,0.5345317009886206
4.284074980716769,86.56437828063497,522.4430464944631,0.5296963821431457
4.358889507505972,88.92538589740138,519.3287578166938,0.5243709157231665
4.435010550507864,91.8748405497098,517.7651848588235,0.5218226888459154
4.5124609259412685,94.69056509433779,517.2859017721566,0.5163222862525908
4.59126384847382,97.73621043503738,513.4044294687116,0.5131651385674134
4.671442938180244,100.28864021473163,511.3006550103942,0.5100049835526562
4.753022227622148,103.36911815082624,509.5974187228733,0.5038763325125009
4.836026169051442,105.1508200151651,506.1919447432408,0.5019095729190828
4.920479641739553,108.01432636219596,505.87513253903506,0.4972146364675205
5.006407959434651,111.16691313604991,503.35041336981914,0.4923204124247012
5.093836877949081,114.52953525850137,500.74814419211805,0.48973186690281684
5.182792602879318,118.35994585383554,498.7455534117616,0.48451263672252476
5.273301797460716,121.33686760824224,493.7832470153183,0.48136818794887826
5.365391590559449,124.61604512403227,492.16327852773685,0.47812846148611665
5.459089584804013,128.07815223450712,490.9554831279662,0.47265653228323273
5.554423864858712,129.9294013571016,487.6388727575476,0.4703271151872877
5.651423005841657,133.2471580020691,486.20977287137055,0.46592345894801207
5.750116081889761,136.50955465538146,482.6963129296856,0.4613937265856538
5.85053267487329,139.09238101991565,480.83866733944654,0.4586352540753378
5.952702883262636,142.38706267785125,480.55521885197055,0.45371453944475926
6.056657331149892,144.2398295656546,477.2374858491485,0.4504369856445754
6.162427177428005,146.73016573253364,476.4310794316072,0.44706760182736044
6.270044125130228,149.57506415377946,474.9605091121626,0.4420383174419299
6.379540430932644,150.6177042642791,471.9973751900996,0.4393391072682276
6.4909489148226625,153.4925307869155,471.4941910147553,0.43514953867596096
6.604302969936352,155.92014793554995,469.2784937266259,0.43085581689727004
6.719636572567562,157.56909348745074,468.65110160337866,0.42795833030547964
6.836984292351858,160.5650889405556,468.7870441316502,0.42338657547633063
6.956381302628261,161.97385879257183,465.4769435639612,0.420079107116558
7.077863390981976,164.57263610677307,464.35071559419055,0.41676541071407364
7.2014669699712375,167.7242340739674,462.47337283932654,0.41225185645735
7.327229088041434,168.74502182192896,459.911257316847,0.4094109056127581
7.455187440629881,171.8607429539615,459.6670584809902,0.4055285734205535
7.585380381464499,174.1821669058674,457.58799787765764,0.4015747899286307
7.717846934059807,175.97052729349997,456.78420678543836,0.3986596665976852
7.852626803413676,179.3969139946712,456.3707115897057,0.39452731945114755
7.9897603879083405,180.7419805050547,453.15260647362436,0.39128631077819126
8.129288791419256,183.5426526820408,451.98198700010624,0.3880613834535492
8.271253835635417,186.6166661066892,450.09028256550425,0.3839918193180933
8.415698072594806,187.23372227632774,448.133643552207,0.38100847240440416
8.562664797438787,189.39060387569475,448.7832329208993,0.3772510202093189
8.712198061389218,190.11593891736788,448.0793338958912,0.37337948646452357
8.864342684952176,190.39996170257973,448.8520892120804,0.37023399365167015
9.019144271352292,192.39699027460716,450.0860551766247,0.36622532741139885
9.17664922020169,191.9440755165528,449.156239688412,0.36283184068017055
9.336904741407581,193.8407435934226,449.2730674863971,0.3595817956709358
9.49995886932282,196.1495867496422,448.0388601191009,0.35575102383148477
9.665860477143504,196.36278522012816,446.39349207796494,0.3527277898455683
9.834659291558038,199.12222776027807,446.2871971863585,0.34924804306489937
10.006405907652008,200.36401859924752,444.6570531883408,0.34570502121843344
10.181151804073364,201.07636656815663,444.5652795697752,0.3426889381333411
10.35894935846242,203.16576858901163,445.478275151701,0.3390037682553352
10.539851863151315,202.76230071735802,445.13986054338,0.33571484315669875
10.723913541137632,204.10492469271128,446.488301557603,0.33252458309093674
10.911189562337036,205.51682332399963,446.6635539739562,0.32890298447168576
11.101736060119611,204.68251857479197,446.78132045268296,0.3257898897143865
11.295610148135111,206.05656038288248,448.3638099829211,0.32232169481392314
11.492869937431948,205.32756877113343,448.34446095474823,0.3187567938911331
11.69357455387518,204.52091760607976,449.3640626662845,0.31560578294884456
11.89778415586867,205.9100042590395,450.21757442414435,0.312055190702779
12.1055599523867,205.66718041611279,448.846918175844,0.30896601749925273
12.316964221320523,208.73367626717993,448.1203030101051,0.306136918699128
12.532060328145308,212.0822459621184,446.17487576061086,0.3030558931413171
12.750912744913013,213.50679264093247,444.57016294307965,0.30036321498136453
12.973587069577023,217.36239230875964,444.1583349931496,0.2974759020179873
13.200150045654192,217.06757005442591,444.8825878300413,0.2941972027578437
13.430669582230285,216.42075165871097,446.76138980385645,0.29116352793256667
13.665214774314803,217.65544157812747,448.42628440107694,0.28785824962973044
13.90385592355121,216.11255629363728,449.035371341941,0.2847287497347637
14.14666455928888,216.6690200426484,450.62910204288016,0.2816827078437966
14.393713460023037,217.04289492578187,451.10100016699994,0.27842841076423547
14.645076675209067,214.89605657996054,452.1400170042072,0.2753669546679569
14.900829547457828,215.02708408498944,454.57418286472733,0.2721330330683788
15.161048735118523,212.86848946717765,455.877345120591,0.26883115222497467
15.425812235255988,210.67929052693228,458.4829529037272,0.26577990278980657
15.695199407029223,210.87464341518194,461.01333599991096,0.2625239688594052
15.969290995478175,207.7921669642853,462.70427081417125,0.25946652578781376
16.248169155725932,208.2045207490949,465.5552566888293,0.2565603689675648
16.53191747760362,207.95970249365558,467.4469815582765,0.25347701852044857
16.82062101070521,205.7281937954,469.8657244268418,0.25065078147792264
17.11436628988001,206.8825814919462,473.1282126028035,0.24772654911386238
17.413241361170254,205.23720344950885,475.01889922064146,0.2447898539288347
17.71733580820165,204.31548539123662,477.91797287644033,0.24204077901870347
18.02674077903487,205.03315305273338,480.4603018993481,0.23912499131636747
18.341549013485864,202.84843371724668,481.84220404491583,0.23634092227835554
18.661854870923328,202.8703903096615,484.44117600879224,0.23358878548297915
18.987754358551648,202.3353772730846,486.0401321835406,0.23069336253987288
19.319345160187662,199.76749337851044,487.45843490324813,0.22795995927984578
19.65672666554005,199.72025516843433,489.8859423782281,0.22515422572439237
20.000000000000004,198.1038900502739,490.65298379565263,0.22234430830176577
