wavelength,n,k
3.800000000000000000e+02,nan,nan
3.821105527638191006e+02,nan,nan
3.842211055276382012e+02,nan,nan
3.863316582914573019e+02,nan,nan
3.884422110552764025e+02,nan,nan
3.905527638190955031e+02,nan,nan
3.926633165829145469e+02,nan,nan
3.947738693467336475e+02,nan,nan
3.968844221105527481e+02,nan,nan
3.989949748743718487e+02,nan,nan
4.011055276381909493e+02,1.617149199746616306e+00,7.415652078877777581e-04
4.032160804020100500e+02,1.616080089016679988e+00,7.427674291154317448e-04
4.053266331658291506e+02,1.615014663504088510e+00,7.449982902951720947e-04
4.074371859296482512e+02,1.613952733587634247e+00,7.482620114821497302e-04
4.095477386934673518e+02,1.612894121466367015e+00,7.525668198263653005e-04
4.116582914572864524e+02,1.611919583851503468e+00,7.579017526526092433e-04
4.137688442211054962e+02,1.610970127169447652e+00,7.642987342571913503e-04
4.158793969849245968e+02,1.610023537094942725e+00,7.717834136699842874e-04
4.179899497487436975e+02,1.609079677229990901e+00,7.803788457441939450e-04
4.201005025125627981e+02,1.608140222942328501e+00,7.901113375426813308e-04
4.222110552763818987e+02,1.607239302190702102e+00,8.010052687095620128e-04
4.243216080402009993e+02,1.606340764595223236e+00,8.130993570833626232e-04
4.264321608040200999e+02,1.605444510445596773e+00,8.264301229425690624e-04
4.285427135678392006e+02,1.604550448893835135e+00,8.410371851958293662e-04
4.306532663316583012e+02,1.603688446465641571e+00,8.569510434193758439e-04
4.327638190954774018e+02,1.602895298981338534e+00,8.742007783712111256e-04
4.348743718592965024e+02,1.602104138410326728e+00,8.928602771404599812e-04
4.369849246231156030e+02,1.601314909013575871e+00,9.129795076900249634e-04
4.390954773869346468e+02,1.600527564098582767e+00,9.346104778388649370e-04
4.412060301507537474e+02,1.599787756427670793e+00,9.577832105780883067e-04
4.433165829145728480e+02,1.599084043747523332e+00,9.825567291554546459e-04
4.454271356783919487e+02,1.598382141697580305e+00,1.009004082366473862e-03
4.475376884422110493e+02,1.597682040883494192e+00,1.037181514944652758e-03
4.496482412060301499e+02,1.596983741674813162e+00,1.067145220971119687e-03
4.517587939698492505e+02,1.596325843289791324e+00,1.098933007505607535e-03
4.538693467336683511e+02,1.595677500177685948e+00,1.132611575871949900e-03
4.559798994974873949e+02,1.595031025270684299e+00,1.168236517017373155e-03
4.580904522613064955e+02,1.594386458940067808e+00,1.205857329392918823e-03
4.602010050251255961e+02,1.593741245051695232e+00,1.245522251630435664e-03
4.623115577889446968e+02,1.593073285982771869e+00,1.287292739341096151e-03
4.644221105527637974e+02,1.592407414005332589e+00,1.331184708065003778e-03
4.665326633165828980e+02,1.591743709487776659e+00,1.377228505733792824e-03
4.686432160804019986e+02,1.591082262239384315e+00,1.425447329234082747e-03
4.707537688442210992e+02,1.590462281590073745e+00,1.475819967086951495e-03
4.728643216080401999e+02,1.589915170933120070e+00,1.528318324098180015e-03
4.749748743718593005e+02,1.589370649941379998e+00,1.583000652983037422e-03
4.770854271356784011e+02,1.588828840592885205e+00,1.639851011051952001e-03
4.791959798994975017e+02,1.588289871169194178e+00,1.698841289122274929e-03
4.813065326633166023e+02,1.587790387149276450e+00,1.759895046378941522e-03
4.834170854271357030e+02,1.587316487367235185e+00,1.822966785938123909e-03
4.855276381909547467e+02,1.586845844366655989e+00,1.888007069882351781e-03
4.876381909547738474e+02,1.586378600101397751e+00,1.954930142151188512e-03
4.897487437185929480e+02,1.585914896594851964e+00,2.023634123091389795e-03
4.918592964824120486e+02,1.585453018281052673e+00,2.093993697710395691e-03
4.939698492462311492e+02,1.584994707518764923e+00,2.165879528735656714e-03
4.960804020100502498e+02,1.584540347345270161e+00,2.239140016222401601e-03
4.981909547738693504e+02,1.584090063083357869e+00,2.313605515453457523e-03
5.003015075376884511e+02,1.583646680348956837e+00,2.389087490944817593e-03
5.024120603015074948e+02,1.583223850920601805e+00,2.465371932593194999e-03
5.045226130653265955e+02,1.582805413229496860e+00,2.542250939088911473e-03
5.066331658291456961e+02,1.582391445325791013e+00,2.619490484930918697e-03
5.087437185929647967e+02,1.581982008604805090e+00,2.696842574546052737e-03
5.108542713567838973e+02,1.581599322321060708e+00,2.774004252365135353e-03
5.129648241206029979e+02,1.581253845555805393e+00,2.850680038400784690e-03
5.150753768844220986e+02,1.580912966512906248e+00,2.926649373021031949e-03
5.171859296482411992e+02,1.580576661961994089e+00,3.001623713162582079e-03
5.192964824120602998e+02,1.580244883929480704e+00,3.075309276209432091e-03
5.214070351758794004e+02,1.579944250686629692e+00,3.147354825399380131e-03
5.235175879396985010e+02,1.579661315115299391e+00,3.217487570861197500e-03
5.256281407035176017e+02,1.579382602788101941e+00,3.285439503735107254e-03
5.277386934673367023e+02,1.579107957616576963e+00,3.350920975434550260e-03
5.298492462311558029e+02,1.578837195637386337e+00,3.413650195259488544e-03
5.319597989949747898e+02,1.578529015903992194e+00,3.473444536143421770e-03
5.340703517587940041e+02,1.578221109789918586e+00,3.529968066050413918e-03
5.361809045226129911e+02,1.577916373052337118e+00,3.582972954317674603e-03
5.382914572864322054e+02,1.577614515302660614e+00,3.632237418231131117e-03
5.404020100502511923e+02,1.577324452616799100e+00,3.677540706564926334e-03
5.425125628140704066e+02,1.577075845764688955e+00,3.718637855104919929e-03
5.446231155778893935e+02,1.576829106867277730e+00,3.755470365615272334e-03
5.467336683417084942e+02,1.576583860296425721e+00,3.787920900858965292e-03
5.488442211055275948e+02,1.576339714582323914e+00,3.815904067360824121e-03
5.509547738693466954e+02,1.576094359002322642e+00,3.839377823133218858e-03
5.530653266331657960e+02,1.575846977313480224e+00,3.858328513581606341e-03
5.551758793969848966e+02,1.575599454205744321e+00,3.872766358552966540e-03
5.572864321608039972e+02,1.575351362604368255e+00,3.882751611061106486e-03
5.593969849246230979e+02,1.575102274229611465e+00,3.888384354644813020e-03
5.615075376884421985e+02,1.574898403675814462e+00,3.889690289340508918e-03
5.636180904522612991e+02,1.574711342898216015e+00,3.886921044495698137e-03
5.657286432160803997e+02,1.574522023750927202e+00,3.880347591480205662e-03
5.678391959798995003e+02,1.574330047618191175e+00,3.870237285735318548e-03
5.699497487437186010e+02,1.574135032318735972e+00,3.856900128546741739e-03
5.720603015075377016e+02,1.573967455503363810e+00,3.840603327823022793e-03
5.741708542713568022e+02,1.573796891229195527e+00,3.821826364879132940e-03
5.762814070351759028e+02,1.573622278569122512e+00,3.801009151022060033e-03
5.783919597989950034e+02,1.573443341917447169e+00,3.778631372822496576e-03
5.805025125628139904e+02,1.573261849355407360e+00,3.755209096245425496e-03
5.826130653266332047e+02,1.573082018958866568e+00,3.731292947932049464e-03
5.847236180904521916e+02,1.572897286798173866e+00,3.707498055141206748e-03
5.868341708542714059e+02,1.572707562265649894e+00,3.684460877492919985e-03
5.889447236180903928e+02,1.572512816309058925e+00,3.662851954928872042e-03
5.910552763819094935e+02,1.572308876452089832e+00,3.643373700276781538e-03
5.931658291457285941e+02,1.572095858297193338e+00,3.626752973187310266e-03
5.952763819095476947e+02,1.571878173508987508e+00,3.613735389334331131e-03
5.973869346733667953e+02,1.571656113674034128e+00,3.605080397927697394e-03
5.994974874371858959e+02,1.571430070214157704e+00,3.601550578311866514e-03
6.016080402010049966e+02,1.571165238134992093e+00,3.603995698650294330e-03
6.037185929648240972e+02,1.570886499526721769e+00,3.613083338148765505e-03
6.058291457286431978e+02,1.570605618236821321e+00,3.629479495909737011e-03
6.079396984924622984e+02,1.570323448663613286e+00,3.653824453012420939e-03
6.100502512562813990e+02,1.570043275844269504e+00,3.686677136650230811e-03
6.121608040201004997e+02,1.569858481620610258e+00,3.728276931989978234e-03
6.142713567839196003e+02,1.569675695739853882e+00,3.779195688849956193e-03
6.163819095477387009e+02,1.569496236999362582e+00,3.839631255063827298e-03
6.184924623115578015e+02,1.569321513094827036e+00,3.909611476843798290e-03
6.206030150753769021e+02,1.569134341285567169e+00,3.989019629548717742e-03
6.227135678391960028e+02,1.568908250576130259e+00,4.077553885103083094e-03
6.248241206030149897e+02,1.568691415288668622e+00,4.174484927304242948e-03
6.269346733668342040e+02,1.568485337825157089e+00,4.278958097081049169e-03
6.290452261306531909e+02,1.568291453348682696e+00,4.389867577020359866e-03
6.311557788944724052e+02,1.568169918764023896e+00,4.505683455249883708e-03
6.332663316582913922e+02,1.568111663893235974e+00,4.624825488351311589e-03
6.353768844221104928e+02,1.568069046650383935e+00,4.745611954840846421e-03
6.374874371859295934e+02,1.568042779581508839e+00,4.866025947818788250e-03
6.395979899497486940e+02,1.568033287495899986e+00,4.983892066094543216e-03
6.417085427135677946e+02,1.567936675647445766e+00,5.097256593215552731e-03
6.438190954773868953e+02,1.567832245859360096e+00,5.203531397759468546e-03
6.459296482412059959e+02,1.567743864892992445e+00,5.300288840904416633e-03
6.480402010050250965e+02,1.567670558451212726e+00,5.385240389824148127e-03
6.501507537688441971e+02,1.567619862212145332e+00,5.456193724179742889e-03
6.522613065326632977e+02,1.567696545756462223e+00,5.510803341375468574e-03
6.543718592964823983e+02,1.567783270474561785e+00,5.547750307008440102e-03
6.564824120603014990e+02,1.567877781503880241e+00,5.565624918728521130e-03
6.585929648241205996e+02,1.567977613932016512e+00,5.563367604217761379e-03
6.607035175879397002e+02,1.568051402636116975e+00,5.540405651360895758e-03
6.628140703517588008e+02,1.568067719023680695e+00,5.496567941625732194e-03
6.649246231155777878e+02,1.568081377482756666e+00,5.431785556149396239e-03
6.670351758793970021e+02,1.568089742103644602e+00,5.346602594292055449e-03
6.691457286432159890e+02,1.568090308540857070e+00,5.241949349258053122e-03
6.712562814070352033e+02,1.568163365993166414e+00,5.118842722400570970e-03
6.733668341708541902e+02,1.568280397147226557e+00,4.978982679538863400e-03
6.754773869346734045e+02,1.568383463523322252e+00,4.824412408105315311e-03
6.775879396984923915e+02,1.568471127492558015e+00,4.657188256655413541e-03
6.796984924623116058e+02,1.568542298677042979e+00,4.479503671534217253e-03
6.818090452261305927e+02,1.568520584953520869e+00,4.293833248740937941e-03
6.839195979899496933e+02,1.568468659592772818e+00,4.102263915512170504e-03
6.860301507537687939e+02,1.568399082553115109e+00,3.906993351449706241e-03
6.881407035175878946e+02,1.568312115157001640e+00,3.710158652279417837e-03
6.902512562814069952e+02,1.568205546456982846e+00,3.513762883969817185e-03
6.923618090452260958e+02,1.568062548228922326e+00,3.319666562131104882e-03
6.944723618090451964e+02,1.567904462941882571e+00,3.129431625813084306e-03
6.965829145728642970e+02,1.567732425684155384e+00,2.944452741376926610e-03
6.986934673366833977e+02,1.567547682797012731e+00,2.765894567978743543e-03
7.008040201005024983e+02,1.567383569014865641e+00,2.594638371128307145e-03
7.029145728643215989e+02,1.567261444964535233e+00,2.431372920423369253e-03
7.050251256281406995e+02,1.567130622844558729e+00,2.276685809207483219e-03
7.071356783919598001e+02,1.566992410328069019e+00,2.130878424370882297e-03
7.092462311557787871e+02,1.566848055713403687e+00,1.994077677220871744e-03
7.113567839195980014e+02,1.566643335837824447e+00,1.866323991181919988e-03
7.134673366834169883e+02,1.566403940812736373e+00,1.747424191911288970e-03
7.155778894472362026e+02,1.566161618750915308e+00,1.637082528986534688e-03
7.176884422110551895e+02,1.565917239542334638e+00,1.534959634352107754e-03
7.197989949748744039e+02,1.565671566638690226e+00,1.440654656152410380e-03
7.219095477386933908e+02,1.565453788299292937e+00,1.353697290481858245e-03
7.240201005025126051e+02,1.565238941813311691e+00,1.273645484223767752e-03
7.261306532663315920e+02,1.565024491867332834e+00,1.200021013196916550e-03
7.282412060301508063e+02,1.564810821338082025e+00,1.132342844621063568e-03
7.303517587939697933e+02,1.564616108579099496e+00,1.070127909648229498e-03
7.324623115577888939e+02,1.564512085356067006e+00,1.012879603061313076e-03
7.345728643216079945e+02,1.564409578950745727e+00,9.602263646714829029e-04
7.366834170854270951e+02,1.564308720146267540e+00,9.117606695335789269e-04
7.387939698492461957e+02,1.564209597561469600e+00,8.671029783492576392e-04
7.409045226130652964e+02,1.564091535115426090e+00,8.259100285261439158e-04
7.430150753768843970e+02,1.563947645113327178e+00,7.878609681584462440e-04
7.451256281407034976e+02,1.563805568416822611e+00,7.526522390416133567e-04
7.472361809045225982e+02,1.563665289454089891e+00,7.200178390727886681e-04
7.493467336683416988e+02,1.563526778825429231e+00,6.897172725292774215e-04
7.514572864321607994e+02,1.563411782342646328e+00,6.615250103306818865e-04
7.535678391959797864e+02,1.563308235125090873e+00,6.352518884876946379e-04
7.556783919597990007e+02,1.563206319178654491e+00,6.107269676666832398e-04
7.577889447236179876e+02,1.563105978849156585e+00,5.877933015406899614e-04
7.598994974874372019e+02,1.563007156736693437e+00,5.663102535660196257e-04
7.620100502512561889e+02,1.562809614156539517e+00,5.461975965365912849e-04
7.641206030150754032e+02,1.562608458619471952e+00,5.272964207425054122e-04
7.662311557788943901e+02,1.562408642512523649e+00,5.095033015918307368e-04
7.683417085427136044e+02,1.562210110756198533e+00,4.927274987443694670e-04
7.704522613065325913e+02,1.561982151053244339e+00,4.768957098445019923e-04
7.725628140703518056e+02,1.561642949991653762e+00,4.619548927834883482e-04
7.746733668341707926e+02,1.561304871567699593e+00,4.478076372396036313e-04
7.767839195979898932e+02,1.560967868940568382e+00,4.343943523400809956e-04
7.788944723618089938e+02,1.560631897426589587e+00,4.216611203747311657e-04
7.810050251256280944e+02,1.560484299239227823e+00,4.095129818402378072e-04
7.831155778894471950e+02,1.560543786862492732e+00,3.979052290783994172e-04
7.852261306532662957e+02,1.560604203193575179e+00,3.868493480856176575e-04
7.873366834170853963e+02,1.560665511094201818e+00,3.763081406359729763e-04
7.894472361809044969e+02,1.560727675325905173e+00,3.662476343167958039e-04
7.915577889447235975e+02,1.560566975842093473e+00,3.566835609558526780e-04
7.936683417085426981e+02,1.560327683115329878e+00,3.475541445769755812e-04
7.957788944723617988e+02,1.560089138357247274e+00,3.388163583793947671e-04
7.978894472361807857e+02,1.559851313435670628e+00,3.304463543165641801e-04
8.000000000000000000e+02,1.559614181648182329e+00,3.224221626233189425e-04
